ppg
0.5
0.5301410045549717
0.5601723794048558
0.5899848935927949
0.6194701122080553
0.6485207907885174
0.6770312653932344
0.7048978369262746
0.7320191483139742
0.7582965531637219
0.7836344745633783
0.8079407527162943
0.8311269801475024
0.8531088232618587
0.8738063290845535
0.8931442160683094
0.9110521479095312
0.9274649893774767
0.9423230432259408
0.95557226732575
0.9671644712283061
0.9770574914452342
0.985215344806603
0.9916083593399165
0.9962132821938429
0.9990133642141358
0.999998420864127
0.9991648692682082
0.9965157412435662
0.9920606722727725
0.985815866457337
0.9778040375796959
0.9680543264880075
0.9566021951042432
0.9434892974410931
0.9287633280968262
0.9124778487791614
0.8946920934891273
0.8754707530734956
0.8548837399294233
0.8330059337171258
0.8099169090054812
0.7857006458411826
0.760445224294162
0.7342425040902967
0.7071877904966422
0.6793794876744499
0.6509187407607981
0.6219090679806694
0.5924559841275661
0.562666616782152
0.5326493166648179
0.5025132635394094
0.4723680691015366
0.44232337829584584
0.4124884705123619
0.38297186211243084
0.35388091172997505
0.3253214297836665
0.297397293620311
0.2702100696892561
0.24385864412206004
0.21843886306108684
0.19404318404523607
0.17076033972079507
0.14867501510057546
0.12786753954521496
0.10841359458697974
0.09038393865877714
0.07384414972960407
0.058854386782523305
0.04546917100272729
0.033737187471557406
0.023701108087764766
0.015397436360084782
0.00885637463565564
0.00410171424719491
0.0011507489784989278
1.4212163008509027e-05
0.0006962376442284368
0.0031943447399958025
0.0074994472652869515
0.013595886580743621
0.021461488546714425
0.03106764417565555
0.04237941368954118
0.055355653603801624
0.06994916637555587
0.08610687207183598
0.10377000143340465
0.12287430963194801
0.1433503099431635
0.16512352648581757
0.18811476510750474
0.21224040143183426
0.23741268501935198
0.2635400585358935
0.2905274907674827
0.3182768222705199
0.34668712240005917
0.37565505641757274
0.4050752613429532
0.4348407291836929
0.4648431961473482
0.4949735364216348
0.5251221590898845
0.5551794067381955
0.5850359543044442
0.6145832067184613
0.6437136938870582
0.6723214615872586
0.7003024568459615
0.7275549064043269
0.75397968689032
0.7794806853530138
0.8039651488473027
0.8273440217975103
0.8495322699128205
0.8704491894763794
0.8900187008831123
0.9081696253585919
0.9248359438524681
0.9399570371648052
0.9534779064319316
0.9653493731698466
0.9755282581475768
0.9839775384398846
0.9906664820880867
0.9955707598791951
0.9986725338368101
0.9999605221019081
0.9994300399675342
0.9970830169181504
0.9929279896116594
0.9869800708296346
0.979260894508688
0.9697985370529101
0.958627415213588
0.945788160907635
0.9313274734300436
0.9152979495979062
0.8977578924437972
0.8787710991543546
0.8584066290253646
0.8367385522773625
0.8138456806453506
0.7898112807225524
0.7647227711008289
0.738671404409333
0.7117519354078914
0.684062276342339
0.6557031408153645
0.6267776774681703
0.5973910948053549
0.5676502785275902
0.5376634027639668
0.5075395366180186
0.4773882474585342
0.4473192023980509
0.41744176940857153
0.38786461952530954
0.3586953315853655
0.3300400009389679
0.3020028535564948
0.2746858669348635
0.24818839918211938
0.22260682762935147
0.1980341982843613
0.17455988740212586
0.15226927640297638
0.1312434413209132
0.1115588579115811
0.0932871234925155
0.0764946965273739
0.06124265490135128
0.047586473766990156
0.03557582376840068
0.025254390377805747
0.016659715001518638
0.009823058433290344
0.004769287151674462
0.001516782874977085
7.737570275573313e-05
0.00045630108705063677
0.002652180789852021
0.006657027896065981
0.012456275863745314
0.020028831505924105
0.029347151711346386
0.04037734362504258
0.05307928792436789
0.06740678474212763
0.08330772170602396
0.10072426348323749
0.11959306214071536
0.13984548755604648
0.16140787704086534
0.1842018032688385
0.20814435953373583
0.2331484613000162
0.2591231629491426
0.2859739885695247
0.3136032755869536
0.3419105299856433
0.37079279182788294
0.4001450097427963
0.42986042302213423
0.45983094993330353
0.4899475808372714
0.5201007746814763
0.5501808574256067
0.5800784209510906
0.6096847210033622
0.6388920727195133
0.6675942423026826
0.6956868334186009
0.7230676669088529
0.7496371524397742
0.7752986507352009
0.7999588250755437
0.8235279807847222
0.8459203914701441
0.8670546108291444
0.8868537688877512
0.9052458515943111
0.9221639627510073
0.9375465673305868
0.9513377152932794
0.963487245089851
0.9739509661105912
0.9826908194166369
0.9896750161690101
0.9948781532518705
0.9982813056694411
0.9998720953805311
0.9996447363202946
0.9976000554454667
0.9937454897265338
0.9880950590977764
0.9806693154635715
0.9714952679464324
0.96060628464867
0.9480419712849996
0.9338480271275273
0.9180760787870768
0.9007834924354388
0.8820331651515227
0.8618932961503457
0.8404371387269343
0.8177427338173959
0.7938926261462368
0.7689735639923856
0.7430761836659237
0.7162946798431603
0.6887264629591257
0.6604718049036047
0.6316334743094205
0.6023163627594813
0.5726271032721868
0.5426736824528234
0.5125650477216691
0.4824107110473811
0.45232035062700526
0.422403411961367
0.3927687097768304
0.36352403224133745
0.3347757489142611
0.30662842385607036
0.279184435305009
0.2525436033040934
0.22680282663286588
0.20205573036443925
0.17839232532976712
0.15589868072772284
0.1346566110718052
0.11474337861210493
0.0962314123148788
0.07918804442189276
0.06367526554770558
0.04974949920567506
0.03746139658277087
0.02685565230966408
0.017970841896164325
0.010839281423298208
0.0054869100023522965
0.001933195428413803
0.00019106337156094
0.00026685036325463374
0.002160280748927934
0.005864467690605557
0.011365938215903093
0.01864468222229937
0.027674225258441043
0.038421724817758574
0.0508480897941474
0.06490812266523655
0.08055068388608017
0.09771887789533795
0.11635026005740845
0.13637706378780118
0.1577264470356557
0.1803207572268823
0.20407781370428452
0.22891120663734
0.2547306113144563
0.2814421166745331
0.30894856688291045
0.3371499147092843
0.3659435854222868
0.3952248498771792
0.4248872054396205
0.4548227633600325
0.48492264118957146
0.5150773588104278
0.5451772366399668
0.5751127945603788
0.6047751501228201
0.6340564145777124
0.662850085290715
0.6910514331170889
0.7185578833254662
0.745269388685543
0.7710887933626593
0.7959221862957149
0.8196792427731172
0.8422735529643438
0.8636229362121983
0.8836497399425911
0.9022811221046616
0.9194493161139194
0.9350918773347632
0.9491519102058523
0.9615782751822411
0.9723257747415588
0.9813553177777004
0.9886340617840967
0.9941355323093943
0.9978397192510722
0.9997331496367454
0.9998089366284391
0.9980668045715863
0.9945130899976475
0.9891607185767015
0.9820291581038354
0.9731443476903356
0.9625386034172287
0.9502505007943245
0.9363247344522939
0.9208119555781067
0.9037685876851206
0.8852566213878944
0.8653433889281941
0.8441013192722777
0.8216076746702334
0.7979442696355614
0.7731971733671348
0.7474563966959071
0.7208155646949916
0.6933715761439303
0.6652242510857396
0.6364759677586633
0.6072312902231704
0.5775965880386347
0.5476796493729946
0.5175892889526197
0.48743495227833245
0.4573263175471764
0.427372896727814
0.39768363724051947
0.3683665256905811
0.3395281950963952
0.311273537040875
0.28370532015684036
0.2569238163340778
0.23102643600761436
0.20610737385376376
0.18225726618260535
0.15956286127306557
0.13810670384965484
0.11796683484847775
0.0992165075645623
0.08192392121292325
0.0661519728724731
0.05195802871500077
0.03939371535133068
0.028504732053567627
0.01933068453642839
0.01190494090222377
0.006254510273466074
0.00239994455453324
0.00035526367970539763
0.0001279046194688771
0.0017186943305590452
0.005121846748129599
0.010324983830989953
0.017309180583362893
0.026049033889409157
0.0365127549101491
0.048662284706720293
0.06245343266941367
0.0778360372489928
0.09475414840568896
0.11314623111224831
0.1329453891708564
0.15407960852985608
0.1764720192152779
0.20004117492445572
0.2247013492648
0.25036284756022587
0.2769323330911472
0.3043131665813984
0.3324057576973175
0.3611079272804868
0.39031527899663704
0.41992157904891037
0.4498191425743934
0.4798992253185238
0.5100524191627269
0.5401690500666966
0.570139576977865
0.5998549902572021
0.6292072081721173
0.658089470014356
0.6863967244130457
0.7140260114304738
0.7408768370508575
0.7668515386999832
0.7918556404662636
0.8157981967311603
0.8385921229591348
0.860154512443953
0.8804069378592841
0.8992757365167625
0.9166922782939757
0.932593215257872
0.9469207120756313
0.9596226563749575
0.9706528482886534
0.9799711684940757
0.9875437241362544
0.9933429721039341
0.9973478192101479
0.9995436989129494
0.9999226242972443
0.998483217125023
0.9952307128483256
0.99017694156671
0.9833402849984814
0.9747456096221945
0.9644241762315996
0.9524135262330101
0.9387573450986482
0.9235053034726259
0.9067128765074844
0.8884411420884194
0.8687565586790866
0.8477307235970235
0.8254401125978748
0.8019658017156378
0.7773931723706484
0.7518116008178806
0.7253141330651371
0.6979971464435042
0.6699599990610319
0.6413046684146344
0.6121353804746912
0.5825582305914283
0.552680797601949
0.5226117525414665
0.49246046338198035
0.462336597236033
0.4323497214724097
0.4026089051946458
0.37322232253182874
0.3442968591846353
0.3159377236576609
0.28824806459210933
0.2613285955906661
0.23527722889917096
0.2101887192774483
0.18615431935465004
0.16326144772263806
0.14159337097463598
0.12122890084564647
0.10224210755620272
0.08470205040209416
0.06867252656995682
0.054211839092365766
0.041372584786411926
0.030201462947090196
0.020739105491312415
0.01301992917036543
0.00707201038834071
0.0029169830818497333
0.0005699600324657883
3.947789809194413e-05
0.0013274661631898499
0.004429240120804756
0.009333517911912947
0.016022461560115442
0.024471741852423012
0.03465062683015302
0.04652209356806836
0.06004296283519467
0.07516405614753147
0.09183037464140742
0.10998129911688781
0.12955081052362044
0.15046773008717906
0.17265597820248885
0.19603485115269748
0.220519314646986
0.2460203131096793
0.27244509359567365
0.2996975431540387
0.3276785384127412
0.3562863061129411
0.3854167932815392
0.4149640456955555
0.44482059326180373
0.4748778409101144
0.5050264635783658
0.535156803852652
0.5651592708163069
0.5949247386570479
0.6243449435824279
0.6533128775999409
0.6817231777294799
0.7094725092325183
0.7364599414641066
0.7625873149806478
0.7877595985681651
0.8118852348924943
0.8348764735141811
0.8566496900568376
0.8771256903680527
0.8962299985665958
0.9138931279281641
0.9300508336244442
0.9446443463961982
0.9576205863104583
0.9689323558243451
0.9785385114532861
0.9864041134192566
0.9925005527347132
0.9968056552600042
0.9993037623557716
0.9999857878369915
0.9988492510215009
0.9958982857528048
0.9911436253643441
0.9846025636399149
0.9762988919122352
0.9662628125284425
0.9545308289972729
0.941145613217477
0.9261558502703947
0.9096160613412217
0.8915864054130194
0.8721324604547844
0.8513249848994242
0.8292396602792049
0.8059568159547643
0.781561136938911
0.7561413558779382
0.7297899303107424
0.7026027063796878
0.6746785702163327
0.6461190882700245
0.6170281378875693
0.5875115294876385
0.5576766217041516
0.5276319308984615
0.4974867364605889
0.4673506833351809
0.43733338321784715
0.4075440158724336
0.37809093201933436
0.34908125923920263
0.3206205123255512
0.2928122095033593
0.2657574959097051
0.23955477570583994
0.21429935415881984
0.19008309099452148
0.1669940662828744
0.1451162600705771
0.12452924692650513
0.10530790651087368
0.08752215122083984
0.07123667190317517
0.056510702558908166
0.04339780489575684
0.031945673511992734
0.02219596242030436
0.014184133542663346
0.007939327727227774
0.0034842587564340444
0.0008351307317918666
1.57913587295333e-06
0.0009866357858642205
0.003786717806157025
0.008391640660083244
0.014784655193396612
0.022942508554765206
0.03283552877169316
0.044427732674248877
0.057676956774059374
0.07253501062252338
0.08894785209046852
0.10685578393168993
0.12619367091544553
0.14689117673814
0.16887301985249575
0.19205924728370632
0.21636552543662196
0.24170344683627792
0.26798085168602526
0.2951021630737244
0.322968734606764
0.3514792092114806
0.3805298877919423
0.41001510640720573
0.4398276205951444
0.46985899544502796
0.4999999999999993
0.5301410045549706
0.5601723794048541
0.5899848935927928
0.6194701122080563
0.648520790788518
0.6770312653932345
0.7048978369262743
0.7320191483139734
0.7582965531637208
0.7836344745633768
0.8079407527162925
0.8311269801475032
0.853108823261859
0.8738063290845535
0.8931442160683092
0.9110521479095306
0.9274649893774759
0.94232304322594
0.9555722673257505
0.9671644712283063
0.9770574914452343
0.985215344806603
0.9916083593399165
0.9962132821938428
0.9990133642141357
0.999998420864127
0.9991648692682082
0.9965157412435661
0.9920606722727725
0.985815866457337
0.9778040375796961
0.9680543264880078
0.9566021951042438
0.9434892974410924
0.9287633280968256
0.9124778487791609
0.8946920934891271
0.8754707530734959
0.854883739929424
0.8330059337171267
0.8099169090054796
0.7857006458411814
0.7604452242941613
0.7342425040902962
0.707187790496642
0.6793794876744501
0.6509187407607988
0.621909067980667
0.5924559841275644
0.5626666167821508
0.532649316664817
0.502513263539409
0.47236806910153645
0.4423233782958464
0.4124884705123629
0.38297186211242873
0.3538809117299735
0.3253214297836653
0.2973972936203102
0.27021006968925576
0.2438586441220601
0.21843886306108729
0.19404318404523402
0.17076033972079346
0.14867501510057424
0.12786753954521424
0.10841359458697941
0.09038393865877703
0.07384414972960424
0.05885438678252369
0.045469171002726294
0.03373718747155674
0.023701108087764156
0.015397436360084504
0.008856374635655528
0.00410171424719491
0.0011507489784989278
1.4212163008509027e-05
0.0006962376442283813
0.0031943447399955804
0.007499447265286563
0.013595886580743066
0.021461488546713536
0.031067644175654385
0.04237941368954107
0.05535565360380107
0.06994916637555504
0.08610687207183504
0.10377000143340337
0.12287430963194634
0.1433503099431614
0.16512352648581768
0.18811476510750452
0.2122404014318337
0.23741268501935092
0.26354005853589213
0.2905274907674804
0.3182768222705171
0.34668712240005595
0.37565505641757246
0.40507526134295246
0.4348407291836917
0.4648431961473466
0.4949735364216327
0.5251221590898824
0.555179406738193
0.5850359543044448
0.6145832067184611
0.6437136938870576
0.6723214615872575
0.7003024568459599
0.727554906404325
0.7539796868903179
0.7794806853530143
0.8039651488473027
0.8273440217975101
0.8495322699128198
0.8704491894763786
0.8900187008831113
0.9081696253585907
0.9248359438524668
0.9399570371648054
0.9534779064319318
0.9653493731698464
0.9755282581475765
0.9839775384398842
0.9906664820880864
0.9955707598791947
0.9986725338368101
0.9999605221019081
0.9994300399675342
0.9970830169181504
0.9929279896116595
0.9869800708296349
0.9792608945086885
0.969798537052911
0.9586274152135879
0.9457881609076348
0.931327473430044
0.9152979495979067
0.8977578924437981
0.8787710991543556
0.8584066290253662
0.8367385522773617
0.8138456806453498
0.7898112807225515
0.7647227711008289
0.7386714044093337
0.7117519354078921
0.6840622763423405
0.6557031408153627
0.6267776774681693
0.5973910948053539
0.5676502785275901
0.5376634027639667
0.5075395366180193
0.477388247458535
0.4473192023980525
0.4174417694085696
0.3878646195253085
0.3586953315853653
0.3300400009389678
0.3020028535564955
0.2746858669348642
0.24818839918212077
0.22260682762934986
0.19803419828436053
0.17455988740212508
0.15226927640297627
0.1312434413209131
0.11155885791158154
0.09328712349251644
0.0764946965273729
0.06124265490135078
0.04758647376698971
0.035575823768400294
0.025254390377805414
0.016659715001518582
0.009823058433290288
0.004769287151674517
0.001516782874976863
7.737570275567762e-05
0.0004563010870506923
0.0026521807898520766
0.006657027896065981
0.012456275863745314
0.02002883150592394
0.02934715171134733
0.04037734362504336
0.05307928792436878
0.06740678474212819
0.08330772170602452
0.1007242634832376
0.11959306214071486
0.13984548755604598
0.16140787704086673
0.18420180326884
0.20814435953373667
0.2331484613000171
0.2591231629491427
0.28597398856952483
0.31360327558695295
0.341910529985646
0.37079279182788477
0.4001450097427982
0.4298604230221353
0.4598309499333037
0.489947580837268
0.520100774681473
0.5501808574256069
0.5800784209510899
0.6096847210033616
0.6388920727195118
0.667594242302681
0.6956868334185986
0.7230676669088499
0.7496371524397744
0.7752986507352002
0.7999588250755432
0.8235279807847209
0.8459203914701429
0.8670546108291426
0.8868537688877496
0.9052458515943091
0.9221639627510074
0.9375465673305865
0.9513377152932792
0.9634872450898504
0.9739509661105904
0.9826908194166363
0.9896750161690093
0.9948781532518705
0.9982813056694411
0.9998720953805311
0.9996447363202947
0.9976000554454669
0.9937454897265341
0.9880950590977768
0.9806693154635715
0.9714952679464323
0.9606062846486699
0.9480419712849999
0.9338480271275276
0.9180760787870776
0.9007834924354396
0.8820331651515243
0.8618932961503449
0.8404371387269343
0.8177427338173958
0.7938926261462373
0.7689735639923869
0.743076183665925
0.7162946798431626
0.6887264629591248
0.6604718049036045
0.6316334743094203
0.602316362759482
0.5726271032721875
0.5426736824528251
0.5125650477216708
0.4824107110473836
0.4523203506270051
0.4224034119613668
0.39276870977683115
0.3635240322413381
0.33477574891426176
0.3066284238560727
0.27918443530501125
0.25254360330409253
0.22680282663286505
0.2020557303644398
0.17839232532976768
0.1558986807277234
0.13465661107180693
0.11474337861210648
0.0962314123148782
0.0791880444218922
0.06367526554770592
0.04974949920567534
0.037461396582771145
0.026855652309664357
0.01797084189616499
0.010839281423298708
0.00548691000235213
0.001933195428413692
0.0001910633715609955
0.0002668503632545782
0.0021602807489278786
0.005864467690605446
0.011365938215902927
0.018644682222300146
0.02767422525844193
0.03842172481775896
0.050848089794147844
0.06490812266523704
0.08055068388607972
0.09771887789533751
0.11635026005741028
0.13637706378780307
0.15772644703565641
0.18032075722688307
0.20407781370428535
0.22891120663734088
0.2547306113144556
0.28144211667453245
0.30894856688291306
0.33714991470928524
0.3659435854222878
0.3952248498771802
0.4248872054396215
0.4548227633600318
0.48492264118957074
0.5150773588104306
0.5451772366399695
0.5751127945603798
0.6047751501228211
0.6340564145777134
0.662850085290716
0.6910514331170882
0.7185578833254656
0.7452693886855455
0.7710887933626602
0.7959221862957158
0.819679242773118
0.8422735529643446
0.8636229362121979
0.8836497399425906
0.9022811221046633
0.919449316113921
0.9350918773347636
0.9491519102058528
0.9615782751822415
0.9723257747415585
0.9813553177777002
0.9886340617840965
0.9941355323093942
0.997839719251072
0.9997331496367454
0.9998089366284391
0.9980668045715865
0.9945130899976482
0.9891607185767017
0.9820291581038356
0.9731443476903363
0.9625386034172296
0.9502505007943256
0.9363247344522951
0.920811955578109
0.9037685876851231
0.885256621387895
0.8653433889281945
0.8441013192722782
0.821607674670234
0.797944269635562
0.7731971733671368
0.7474563966959094
0.7208155646949908
0.6933715761439294
0.6652242510857402
0.636475967758664
0.607231290223171
0.5775965880386353
0.5476796493729971
0.5175892889526186
0.48743495227833145
0.4573263175471771
0.42737289672781464
0.39768363724052014
0.3683665256905818
0.33952819509639753
0.31127353704087735
0.2837053201568394
0.2569238163340769
0.23102643600761497
0.20610737385376438
0.18225726618260318
0.1595628612730674
0.13810670384965412
0.11796683484847709
0.09921650756455952
0.08192392121292363
0.06615197287247171
0.0519580287150011
0.03939371535132957
0.028504732053568516
0.01933068453642811
0.011904940902223549
0.00625451027346563
0.002399944554533351
0.0003552636797052866
0.0001279046194688216
0.0017186943305591007
0.005121846748129211
0.010324983830990897
0.01730918058336317
0.026049033889410045
0.036512754910148826
0.048662284706721515
0.062453432669412445
0.07783603724898952
0.09475414840568958
0.1131462311122467
0.1329453891708559
0.15407960852985297
0.17647201921527733
0.20004117492445228
0.2247013492647979
0.25036284756022376
0.27693233309114806
0.30431316658139607
0.33240575769731684
0.3611079272804827
0.3903152789966363
0.4199215790489044
0.44981914257439093
0.4798992253185213
0.5100524191627298
0.5401690500666941
0.5701395769778661
0.5998549902571997
0.6292072081721165
0.6580894700143519
0.6863967244130483
0.7140260114304732
0.7408768370508584
0.766851538699981
0.7918556404662644
0.8157981967311583
0.8385921229591342
0.8601545124439525
0.880406937859286
0.8992757365167611
0.9166922782939761
0.9325932152578706
0.9469207120756318
0.9596226563749558
0.9706528482886532
0.9799711684940755
0.9875437241362541
0.9933429721039336
0.9973478192101477
0.9995436989129491
0.9999226242972442
0.9984832171250233
0.9952307128483253
0.9901769415667108
0.9833402849984811
0.9747456096221964
0.9644241762315993
0.9524135262330097
0.9387573450986486
0.9235053034726264
0.9067128765074849
0.8884411420884198
0.8687565586790884
0.8477307235970253
0.8254401125978712
0.8019658017156412
0.777393172370646
0.7518116008178842
0.7253141330651347
0.6979971464435099
0.669959999061031
0.6413046684146334
0.6121353804746902
0.5825582305914291
0.5526807976019497
0.5226117525414673
0.49246046338198285
0.4623365972360355
0.43234972147240514
0.40260890519464826
0.37322232253182597
0.34429685918463937
0.31593772365765826
0.2882480645921132
0.2613285955906652
0.23527722889917008
0.21018871927744742
0.1861543193546492
0.1632614477226373
0.14159337097463526
0.1212289008456458
0.10224210755620317
0.08470205040209455
0.0686725265699572
0.05421183909236288
0.041372584786412925
0.030201462947088642
0.020739105491313137
0.013019929170364763
0.007072010388341432
0.0029169830818494003
0.0005699600324656218
3.947789809194413e-05
0.0013274661631899054
0.004429240120804923
0.00933351791191317
0.016022461560115275
0.02447174185242279
0.03465062683015535
0.0465220935680673
0.06004296283519689
0.07516405614753013
0.09183037464141003
0.10998129911688515
0.12955081052362233
0.15046773008718106
0.172655978202491
0.19603485115269825
0.22051931464698687
0.24602031310968026
0.27244509359567304
0.29969754315403796
0.32767853841274047
0.3562863061129403
0.38541679328154366
0.414964045695553
0.44482059326180834
0.47487784091011187
0.5050264635783687
0.5351568038526476
0.5651592708163097
0.5949247386570489
0.6243449435824289
0.6533128775999419
0.6817231777294809
0.7094725092325176
0.7364599414640998
0.7625873149806472
0.7877595985681645
0.8118852348924938
0.8348764735141807
0.8566496900568346
0.8771256903680499
0.8962299985665931
0.9138931279281617
0.9300508336244457
0.9446443463961963
0.9576205863104594
0.9689323558243423
0.9785385114532859
0.9864041134192547
0.992500552734713
0.9968056552600042
0.9993037623557715
0.9999857878369915
0.9988492510215012
0.9958982857528054
0.9911436253643449
0.984602563639916
0.9762988919122344
0.966262812528444
0.9545308289972716
0.941145613217479
0.926155850270395
0.9096160613412263
0.8915864054130198
0.8721324604547849
0.8513249848994248
0.8292396602792056
0.805956815954765
0.7815611369389146
0.7561413558779417
0.7297899303107462
0.7026027063796918
0.6746785702163367
0.6461190882700218
0.6170281378875734
0.5875115294876357
0.5576766217041593
0.5276319308984622
0.49748673646059677
0.46735068333518165
0.43733338321784787
0.40754401587243433
0.37809093201933164
0.3490812592392033
0.32062051232555194
0.29281220950336
0.26575749590970577
0.2395547757058345
0.21429935415882045
0.19008309099451648
0.1669940662828776
0.1451162600705751
0.12452924692650796
0.10530790651087196
0.08752215122083823
0.07123667190317373
0.05651070255890689
0.04339780489575712
0.031945673511992956
0.022195962420304582
0.014184133542663513
0.007939327727226608
0.0034842587564341
0.000835130731791478
1.57913587295333e-06
0.000986635785864387
0.0037867178061565254
0.008391640660083743
0.014784655193397278
0.02294250855476604
0.032835528771694156
0.04442773267425004
0.05767695677405904
0.07253501062252293
0.08894785209046807
0.10685578393168949
0.1261936709154451
0.1468911767381445
0.1688730198524952
0.1920592472837086
0.21636552543661847
0.24170344683628037
0.2679808516860215
0.29510216307372694
0.32296873460676667
0.35147920921148335
0.3805298877919451
0.410015106407205
0.4398276205951437
0.46985899544502724
